GPHeight,Pressure,O3PartialPressure,Temperature
100,1008.18,3.23,18.4
200,996.592,3.697,17.439999999999998
300,985.005,4.078,16.8
400,973.3960000000001,4.4022,16.1
500,962.2379999999999,4.63,15.42
600,950.848,4.749,14.7
700,939.63,4.841,14.4
800,928.592,4.901800000000001,13.8
900,917.77,4.961,12.8
1000,906.69,4.959,11.7
1100,896.055,4.947,10.8
1200,885.24,4.8196666666666665,9.866666666666667
1300,874.8314285714285,4.827428571428571,9.2
1400,864.26,4.747,8.9
1500,854.0160000000001,4.5832,9.4
1600,843.71,4.4623333333333335,9.4
1700,833.65,4.22,10.2
1800,823.7579999999999,3.9884,9.5
1900,813.82,3.840857142857143,9.6
2000,803.94,3.821,9.6
2100,794.49,3.855,9.4
2200,784.8633333333333,3.908333333333333,8.8
2300,775.44,3.772,8.1
2400,766.14,3.683,7.4
2500,757.0057142857142,3.598,6.728571428571429
2600,747.674,3.3941999999999997,6.4
2700,738.6685714285715,3.2662857142857145,5.9
2800,729.64,3.103,5.1
2900,720.79,3.04,4.6
3000,712.046,2.933,4.0
3100,703.5033333333333,2.7878333333333334,3.5
3200,694.87,2.718,2.8
3300,686.3683333333333,2.6986666666666665,2.3
3400,677.86,2.5884,1.6
3500,669.472,2.5678,1.0
3600,661.106,2.565,0.32
3700,652.9,2.565,-0.2
3800,644.92,2.733,-0.7
3900,636.8316666666667,2.789,-1.3833333333333333
4000,628.9183333333333,2.8056666666666668,-2.0
4100,621.12,2.8215714285714286,-2.8714285714285714
4200,613.2049999999999,2.816,-3.45
4300,605.6,2.7896,-3.88
4400,597.972,2.7902,-4.82
4500,590.4714285714285,2.7392857142857143,-5.5
4600,582.9166666666666,2.688,-6.533333333333333
4700,575.52,2.713,-7.3
4800,568.0375,2.6527499999999997,-8.0
4900,560.89,2.628,-8.4
5000,553.745,2.666,-9.05
5100,546.5883333333334,2.8023333333333333,-7.5
5200,539.5799999999999,2.892,-7.7
5300,532.79,2.9046666666666665,-8.3
5400,525.8725000000001,2.88075,-9.2
5500,519.07375,2.843375,-9.9
5600,512.415,2.79175,-10.5
5700,505.81,2.717,-11.1
5800,499.33,2.7961666666666667,-11.5
5900,492.68857142857144,2.7925714285714283,-11.8
6000,486.33666666666664,2.7233333333333336,-12.533333333333333
6100,479.965,2.836,-13.25
6200,473.7842857142857,2.7595714285714283,-13.871428571428572
6300,467.48333333333335,2.7110000000000003,-13.8
6400,461.5366666666667,2.7826666666666666,-13.833333333333334
6500,455.34799999999996,2.6778,-14.68
6600,449.52,2.644,-15.5
6700,443.5014285714286,2.624,-15.457142857142857
6800,437.6466666666667,2.633,-15.2
6900,431.8328571428571,2.6778571428571425,-15.4
7000,426.1533333333333,2.757,-15.9
7100,420.62,2.766,-15.9
7200,414.99,2.815,-16.5
7300,409.53666666666663,2.888,-16.9
7400,404.126,2.862,-17.66
7500,398.7133333333333,2.851777777777778,-18.7
7600,393.31,2.768,-19.7
7700,388.12,2.753,-20.5
7800,383.0,2.68,-21.4
7900,377.6771428571429,2.721,-22.1
8000,372.7066666666667,2.6956666666666664,-22.783333333333335
8100,367.57428571428574,2.7082857142857146,-23.3
8200,362.52,2.689,-23.7
8300,357.645,2.693,-24.483333333333334
8400,352.73333333333335,2.698,-25.4
8500,347.93,2.57,-26.18
8600,343.17199999999997,2.4654000000000003,-26.9
8700,338.47875,2.343875,-27.6
8800,333.79,2.125,-28.0
8900,329.13,1.781,-28.6
9000,324.5925,1.57625,-29.375
9100,320.01,1.433,-30.2
9200,315.5333333333333,1.3833333333333333,-31.0
9300,311.0466666666667,1.345,-32.03333333333333
9400,306.762,1.2738,-32.879999999999995
9500,302.45125,1.28225,-33.4
9600,298.095,1.4275,-34.2
9700,293.84285714285716,1.5991428571428572,-34.6
9800,289.65285714285716,1.625857142857143,-34.8
9900,285.54,1.562,-35.7
10000,281.4685714285714,1.501,-36.68571428571429
10100,277.4422222222222,1.4008888888888889,-37.67777777777778
10200,273.4171428571429,1.2934285714285714,-38.52857142857143
10300,269.49,1.286,-39.2
10400,265.5,1.302,-39.8
10500,261.72,1.342,-40.55
10600,257.8383333333333,1.4635,-41.0
10700,254.09666666666666,1.8468333333333333,-41.61666666666667
10800,250.3,2.138,-42.55
10900,246.61,2.149,-43.6
11000,243.01142857142858,2.124857142857143,-44.41428571428571
11100,239.42428571428573,2.153,-45.4
11200,235.845,2.024,-46.150000000000006
11300,232.34,1.8801249999999998,-46.8
11400,228.77727272727273,1.749272727272727,-47.40909090909091
11500,225.35222222222222,1.6694444444444445,-48.1
11600,222.03,1.709,-48.8
11700,218.6657142857143,1.691142857142857,-49.357142857142854
11800,215.292,1.6024,-50.160000000000004
11900,212.01250000000002,1.502,-50.5
12000,208.71428571428572,1.511,-51.357142857142854
12100,205.57666666666668,1.546,-52.13333333333333
12200,202.52,1.632,-53.0
12300,199.34,1.628,-53.9
12400,196.278,1.6896,-54.7
12500,193.124,1.6316,-55.2
12600,190.21444444444444,1.6334444444444445,-55.67777777777778
12700,187.16,1.664,-56.5
12800,184.25333333333333,1.6646666666666665,-56.5
12900,181.37,1.6803333333333332,-57.233333333333334
13000,178.51833333333335,1.6768333333333334,-57.81666666666666
13100,175.715,1.6695,-58.650000000000006
13200,172.9625,1.5787499999999999,-59.575
13300,170.22,1.5915714285714286,-60.42857142857143
13400,167.45625,1.5995,-61.0
13500,164.79333333333332,1.4685000000000001,-61.18333333333334
13600,162.2,1.4012,-61.7
13700,159.56,1.4556666666666667,-62.6
13800,156.96714285714285,1.487,-63.34285714285714
13900,154.54333333333335,1.5323333333333333,-63.03333333333333
14000,151.9325,1.6455,-63.6875
14100,149.504,1.691,-64.02
14200,147.04,1.713,-64.9
14300,144.72142857142856,1.7418571428571428,-65.5
14400,142.33222222222224,1.658,-65.94444444444444
14500,140.01999999999998,1.615,-66.75
14600,137.69,1.588,-67.6
14700,135.37428571428572,1.53,-68.4
14800,133.144,1.6058000000000001,-69.2
14900,130.95499999999998,1.596,-70.1
15000,128.80166666666668,1.572,-70.9
15100,126.574,1.497,-71.8
15200,124.49125000000001,1.447,-72.7
15300,122.36200000000001,1.4142000000000001,-73.5
15400,120.26875,1.386,-74.1625
15500,118.20666666666666,1.346,-74.8
15600,116.228,1.308,-75.3
15700,114.222,1.2813999999999999,-76.02
15800,112.18285714285715,1.2965714285714285,-76.75714285714285
15900,110.31,1.315,-77.4
16000,108.36,1.274,-76.5
16100,106.47666666666666,1.253,-76.4
16200,104.73,1.247,-76.7
16300,102.87,1.228,-77.0
16400,101.14571428571429,1.244,-77.62857142857142
16500,99.33833333333332,1.2425000000000002,-78.5
16600,97.65333333333334,1.3951666666666667,-78.2
16700,95.95142857142856,1.487,-78.38571428571429
16800,94.26,1.536,-78.3
16900,92.63666666666667,1.6806666666666665,-77.4
17000,91.038,2.0584000000000002,-76.7
17100,89.42,2.269,-77.4
17200,87.868,2.2768,-78.14
17300,86.37333333333333,2.4273333333333333,-77.23333333333333
17400,84.90857142857142,2.5174285714285713,-77.82857142857142
17500,83.412,2.653,-78.24
17600,81.95,2.688,-78.8
17700,80.52600000000001,2.8695999999999997,-77.86
17800,79.146,3.1302,-74.26
17900,77.82600000000001,4.1098,-71.28
18000,76.51,4.915333333333334,-71.1
18100,75.238,5.068,-71.0
18200,73.948,4.8898,-70.92
18300,72.73,4.796,-70.5
18400,71.52,5.157,-68.5
18500,70.31857142857143,5.6204285714285716,-66.34285714285714
18600,69.1875,5.58725,-61.275
18700,68.08333333333333,5.925666666666667,-59.7
18800,67.02,6.206,-60.3
18900,65.94,6.6817142857142855,-60.3
19000,64.89399999999999,6.7512,-60.2
19100,63.85166666666667,7.0385,-60.5
19200,62.83875,7.030625,-61.0
19300,61.845333333333336,6.898133333333333,-61.806666666666665
19400,60.85714285714286,7.011571428571429,-62.77142857142857
19500,59.855714285714285,6.917142857142857,-63.72857142857143
19600,58.903333333333336,6.959,-63.53333333333333
19700,57.96,6.807,-61.6
19800,57.01,6.941,-61.74
19900,56.11,7.026,-62.1
20000,55.2,7.13,-61.4
20100,54.336,7.392,-61.4
20200,53.44,7.417,-60.4
20300,52.599999999999994,7.8625,-60.1
20400,51.758,8.122399999999999,-59.8
20500,50.935,8.257375,-60.5
20600,50.15,8.393,-60.0
20700,49.35,8.587666666666665,-58.53333333333333
20800,48.57,9.102,-57.6
20900,47.815,9.288125,-57.9625
21000,47.07,9.503499999999999,-57.675000000000004
21100,46.298,9.625,-57.6
21200,45.576,9.6279,-57.190000000000005
21300,44.88,9.796,-56.1
21400,44.162,10.1956,-55.660000000000004
21500,43.476,10.5464,-55.46
21600,42.8,10.617,-55.5
21700,42.16,10.73,-55.3
21800,41.486,10.905199999999999,-55.42
21900,40.84,11.159,-55.5
22000,40.1975,11.313,-55.8
22100,39.558,11.495,-56.6
22200,38.946666666666665,11.238,-56.983333333333334
22300,38.33,11.351,-57.8
22400,37.738,11.62,-57.5
22500,37.14909090909091,11.649272727272727,-57.07272727272727
22600,36.57,11.585,-56.7
22700,35.96714285714285,11.830571428571428,-56.6
22800,35.42,11.764,-56.6
22900,34.864285714285714,11.99,-57.0
23000,34.315,11.844999999999999,-56.9
23100,33.776250000000005,11.944125000000001,-56.712500000000006
23200,33.256,11.813600000000001,-57.1
23300,32.73,12.028,-57.63333333333333
23400,32.217999999999996,12.1782,-56.8
23500,31.71142857142857,12.356571428571428,-56.9
23600,31.21,12.515666666666666,-56.9
23700,30.725,12.72125,-56.3
23800,30.253333333333334,12.429,-55.6
23900,29.782857142857143,12.712285714285715,-55.5
24000,29.318571428571428,12.961,-54.8
24100,28.86857142857143,13.436142857142856,-54.1
24200,28.415000000000003,13.625,-54.3
24300,27.977999999999998,13.3964,-54.3
24400,27.535,13.3775,-53.8
24500,27.115000000000002,13.653,-53.6
24600,26.701428571428572,13.667857142857143,-53.6
24700,26.296,13.7904,-53.18
24800,25.875714285714288,13.872714285714284,-52.6
24900,25.482,13.966800000000001,-52.3
25000,25.09,14.131,-52.1
25100,24.701428571428572,13.972428571428571,-52.6
25200,24.327499999999997,14.101125000000001,-52.7
25300,23.96666666666667,14.139000000000001,-52.7
25400,23.588,13.94,-53.1
25500,23.216666666666665,13.735999999999999,-53.1
25600,22.86,13.859,-53.650000000000006
25700,22.508,13.767999999999999,-54.1
25800,22.152,13.7378,-53.8
25900,21.81,13.653,-53.8
26000,21.476666666666667,13.641333333333334,-53.5
26100,21.15142857142857,13.614571428571429,-52.65714285714286
26200,20.832307692307694,13.60423076923077,-52.53076923076923
26300,20.498,13.6814,-52.5
26400,20.20285714285714,13.610714285714286,-52.3
26500,19.87,13.593,-52.1
26600,19.576666666666668,13.701666666666666,-52.2
26700,19.270000000000003,13.7665,-52.2
26800,18.99,13.854,-51.9
26900,18.68,13.812,-51.6
27000,18.396363636363635,13.751181818181818,-51.3
27100,18.12333333333333,13.699333333333334,-51.6
27200,17.85,13.491,-52.3
27300,17.55,13.433,-53.2
27400,17.305714285714284,13.009142857142857,-53.84285714285714
27500,17.04,12.876,-54.1
27600,16.767142857142858,12.960714285714285,-54.72857142857143
27700,16.5,12.592,-55.4
27800,16.244999999999997,12.642,-56.25
27900,15.996666666666668,12.405,-56.4
28000,15.75,12.186,-56.9
28100,15.503333333333334,12.182333333333332,-55.63333333333333
28200,15.257272727272728,12.038363636363636,-55.7
28300,15.013,11.676,-56.2
28400,14.78,11.339,-55.6
28500,14.55,11.289,-55.150000000000006
28600,14.3325,10.959,-55.2
28700,14.1,10.523,-55.6
28800,13.88,10.0,-53.9
28900,13.67,9.7555,-52.9
29000,13.461428571428572,9.582142857142857,-52.9
29100,13.26,9.621,-52.9
29200,13.06,9.338,-53.1
29300,12.853333333333333,9.355,-52.7
29400,12.65,9.34,-53.0
29500,12.463333333333333,9.298,-52.733333333333334
29600,12.265,9.190249999999999,-53.725
29700,12.08263157894737,9.014684210526315,-54.57368421052632
29800,11.888,8.9422,-55.61
29900,11.70153846153846,8.618538461538462,-56.1
30000,11.515333333333333,8.377,-56.2
30100,11.34,8.229,-56.4
30200,11.163333333333334,8.055333333333333,-56.3
30300,10.983846153846153,8.966153846153846,-56.5
30400,10.81,8.124,-57.0
30500,10.642857142857144,7.67,-56.4
30600,10.482222222222223,7.453111111111111,-56.67777777777778
30700,10.315000000000001,7.3004999999999995,-56.7
30800,10.14875,7.239,-56.2
30900,9.9875,7.163,-56.2
31000,9.841,7.0299000000000005,-56.2
31100,9.684999999999999,6.8895,-56.7
31200,9.530999999999999,6.7037,-57.2
31300,9.386666666666667,7.046,-57.5
31400,9.237272727272728,6.823818181818181,-57.7
31500,9.09,6.435,-57.5
31600,8.947777777777777,6.253333333333333,-57.6
31700,8.8,6.131,-56.8
31800,8.67125,6.060874999999999,-55.6
31900,8.540999999999999,6.0129,-54.01
32000,8.407142857142857,5.944,-53.0
32100,8.27,5.807636363636363,-53.1
32200,8.151428571428571,5.804142857142857,-53.15714285714286
32300,8.022,5.7484,-52.1
32400,7.9,5.694,-51.7
32500,7.776,5.607600000000001,-51.6
32600,7.658461538461538,5.465692307692308,-52.0
32700,7.539090909090909,5.394454545454545,-52.1
32800,7.421428571428572,5.328142857142858,-51.2
32900,7.309166666666666,5.230833333333334,-51.4
33000,7.2,5.169,-50.7
33100,7.096,5.0336,-50.06
33200,6.9911111111111115,5.0217777777777775,-49.422222222222224
33300,6.876666666666667,4.8806666666666665,-48.5
33400,6.77,4.844,-47.3
33500,6.666,4.8946,-46.46
33600,6.574,4.8942,-45.3
33700,6.48,4.797307692307692,-44.4
33800,6.38,4.689,-43.6
33900,6.284,4.6266,-42.64
34000,6.1866666666666665,4.542333333333334,-42.86666666666667
34100,6.1025,4.49625,-42.8
34200,6.01,4.363,-42.6
34300,5.92,4.216,-41.6
34400,5.83,4.142,-41.5
34500,5.76,4.095,-41.1
34600,5.669411764705882,4.0280588235294115,-40.8
34700,5.588,3.9708,-40.5
34800,5.5,3.8894545454545453,-39.845454545454544
34900,5.43,3.845,-39.4
35000,5.345555555555555,3.7375555555555557,-39.044444444444444
35100,5.272222222222222,3.6168888888888886,-39.3
35200,5.19,3.5286999999999997,-39.3
35300,5.12,3.455,-38.849999999999994
35400,5.04,3.407,-37.8
35500,4.97,3.3689999999999998,-37.4
35600,4.892222222222222,3.324333333333333,-36.233333333333334
35700,4.85,3.314,-35.9
35800,4.85,3.314,-35.9
