GPHeight,Pressure,O3PartialPressure,Temperature
100,970.32,1.62,21.75
200,970.32,1.62,21.75
300,970.32,1.62,21.75
400,966.9671428571429,1.65,19.25
500,955.735,1.66,18.2525
600,944.67,1.67,17.36
700,933.648,1.652,16.552
800,922.7428571428571,1.66,15.642857142857142
900,911.9200000000001,1.63,14.98
1000,901.19,1.61,14.42
1100,890.5625,1.56,13.5275
1200,880.03,1.53,12.652
1300,869.634,1.55,11.712000000000002
1400,859.2575,1.53,11.33375
1500,849.01875,1.5,10.37375
1600,838.8966666666666,1.47,9.533333333333333
1700,828.8342857142857,1.43,8.614285714285714
1800,818.83,1.41,7.714
1900,809.01,1.41,7.382
2000,799.2099999999999,1.408,6.594
2100,789.57,1.406,5.678
2200,779.9749999999999,1.455,5.05
2300,770.4820000000001,1.46,4.566
2400,761.0224999999999,1.49,3.995
2500,751.7566666666667,1.5533333333333335,3.6533333333333333
2600,742.5740000000001,1.85,3.118
2700,733.44,1.91,2.714
2800,724.40375,1.94,2.1100000000000003
2900,715.5366666666667,1.8666666666666667,1.27
3000,706.6999999999999,1.78,0.91
3100,697.93,1.78,0.28
3200,689.2928571428572,1.8114285714285714,-0.18857142857142858
3300,680.7524999999999,1.84,-0.6775
3400,672.2766666666666,1.88,-1.3699999999999999
3500,663.9433333333334,1.89,-2.2933333333333334
3600,655.62,1.8466666666666667,-2.793333333333333
3700,647.4,1.818,-3.524
3800,639.2266666666666,1.8044444444444445,-3.944444444444444
3900,631.1975,1.8575000000000002,-4.1475
4000,623.2379999999999,2.0,-4.44
4100,615.3733333333333,2.06,-5.1433333333333335
4200,607.5699999999999,2.11,-5.838333333333334
4300,599.8966666666666,2.14,-6.633333333333333
4400,592.234,2.15,-7.314
4500,584.6700000000001,2.15,-8.255714285714285
4600,577.1949999999999,2.14,-9.137500000000001
4700,569.77,2.125,-9.835
4800,562.41,2.09,-10.504999999999999
4900,555.14,2.06,-11.26
5000,547.9785714285714,2.03,-12.23857142857143
5100,540.86,1.98,-12.84
5200,533.81,1.97,-13.54
5300,526.7866666666666,1.94,-14.206666666666667
5400,519.92,1.91,-14.99
5500,513.0857142857143,1.9,-15.437142857142856
5600,506.34,2.02,-15.53
5700,499.65,2.09,-16.5
5800,493.03,2.12,-16.92
5900,486.5,2.07,-17.64
6000,480.03555555555556,1.97,-18.006666666666668
6100,473.6325,1.93,-18.64875
6200,467.35,1.86,-19.52
6300,461.1,1.78,-20.15
6400,454.8833333333333,1.8566666666666667,-21.216666666666665
6500,448.77666666666664,1.89,-21.723333333333333
6600,442.718,1.83,-22.564
6700,436.6857142857143,1.6928571428571428,-23.411428571428573
6800,430.746,1.602,-24.302
6900,424.87142857142857,1.52,-25.15714285714286
7000,419.06666666666666,1.48,-25.843333333333334
7100,413.31,1.5,-26.64
7200,407.6,1.748,-26.484
7300,401.985,1.9249999999999998,-27.415
7400,396.45,1.99,-28.08125
7500,390.94,2.0,-29.136
7600,385.4816666666667,2.01,-29.974999999999998
7700,380.12199999999996,2.01,-30.900000000000002
7800,374.78499999999997,1.96,-31.575000000000003
7900,369.5125,1.99,-32.425
8000,364.3,1.95,-33.16
8100,359.12,1.94,-33.83
8200,354.03666666666663,1.9333333333333333,-34.766666666666666
8300,348.99,1.89,-35.6
8400,343.99,1.88,-36.37
8500,339.0842857142857,1.86,-37.35142857142857
8600,334.19166666666666,1.8783333333333332,-38.141666666666666
8700,329.3485714285714,1.88,-39.11
8800,324.5566666666667,1.83,-40.06
8900,319.862,1.81,-40.896
9000,315.164,1.82,-41.828
9100,310.5242857142857,1.83,-42.682857142857145
9200,305.94875,1.79875,-43.5875
9300,301.41,1.79,-44.25
9400,296.97,1.74,-45.504999999999995
9500,292.52000000000004,1.68,-46.402857142857144
9600,288.1277777777778,1.77,-46.736666666666665
9700,283.83666666666664,2.032222222222222,-47.425555555555555
9800,279.53999999999996,2.4583333333333335,-47.57166666666667
9900,275.3633333333333,2.7066666666666666,-48.13
10000,271.19714285714286,2.8042857142857143,-48.527142857142856
10100,267.09000000000003,2.9014285714285717,-48.35142857142857
10200,263.072,3.136,-48.384
10300,259.11454545454546,3.4145454545454546,-48.38545454545454
10400,255.185,3.5300000000000002,-49.3
10500,251.316,3.688,-49.46
10600,247.49666666666667,3.8633333333333333,-49.83333333333333
10700,243.732,3.94,-50.578
10800,240.025,3.9516666666666667,-51.015
10900,236.37666666666667,4.086666666666667,-50.47
11000,232.7566666666667,4.056666666666667,-51.03666666666666
11100,229.1977777777778,3.96,-51.63666666666666
11200,225.695,3.885,-51.724999999999994
11300,222.22666666666666,3.88,-52.303333333333335
11400,218.832,3.91,-52.448
11500,215.45833333333334,3.9833333333333334,-52.330000000000005
11600,212.158,4.182,-52.208
11700,208.906,4.25,-52.666000000000004
11800,205.67,4.32,-52.76
11900,202.5375,4.46,-52.67
12000,199.405,4.44,-52.575
12100,196.33,4.52,-52.57
12200,193.32,4.6,-52.39
12300,190.35666666666668,4.6433333333333335,-51.77
12400,187.4575,4.577500000000001,-50.9025
12500,184.59333333333333,4.65,-50.96
12600,181.778,4.7860000000000005,-50.702
12700,179.005,5.198333333333333,-50.556666666666665
12800,176.282,5.35,-51.094
12900,173.59,5.52,-51.265
13000,170.928,5.556,-50.896
13100,168.32333333333335,5.363333333333333,-51.446666666666665
13200,165.73714285714286,5.32,-52.02428571428572
13300,163.2,5.11,-51.84
13400,160.69333333333333,4.993333333333333,-52.22
13500,158.242,4.892,-52.294000000000004
13600,155.796,4.66,-52.498
13700,153.40800000000002,4.61,-52.96
13800,151.04,4.645,-53.355000000000004
13900,148.715,4.76,-53.28
14000,146.43,4.77,-52.81
14100,144.15857142857143,4.79,-53.13428571428572
14200,141.94,4.75,-53.53
14300,139.756,4.78,-53.565999999999995
14400,137.595,4.9350000000000005,-53.355000000000004
14500,135.47,5.08,-53.41
14600,133.38666666666666,5.0,-53.836666666666666
14700,131.3275,5.2925,-53.182500000000005
14800,129.29250000000002,5.7275,-53.68
14900,127.31,5.924,-54.0
15000,125.33333333333334,5.986666666666667,-54.82
15100,123.39,5.87,-55.23
15200,121.47,5.636666666666667,-55.38166666666667
15300,119.57166666666667,5.751666666666667,-55.56333333333333
15400,117.7,6.01,-55.974000000000004
15500,115.86166666666666,5.808333333333333,-56.35166666666667
15600,114.05714285714286,5.92,-56.15571428571428
15700,112.2825,5.88,-55.9475
15800,110.518,5.852,-56.24
15900,108.8,5.71,-56.3
16000,107.092,5.59,-56.01
16100,105.42399999999999,5.843999999999999,-56.106
16200,103.77166666666668,5.793333333333333,-56.806666666666665
16300,102.14,5.833333333333333,-56.38666666666667
16400,100.55,6.15,-55.97
16500,98.97,6.27,-56.81
16600,97.42666666666666,6.43,-56.586666666666666
16700,95.902,6.56,-56.27
16800,94.41,6.76,-55.94
16900,92.93,6.9,-54.88
17000,91.49,7.11,-55.07666666666667
17100,90.066,7.452,-55.416000000000004
17200,88.672,7.946,-55.738
17300,87.28999999999999,8.33,-55.61
17400,85.918,8.248,-56.693999999999996
17500,84.57333333333334,8.366666666666667,-55.65333333333333
17600,83.26333333333334,8.75,-55.586666666666666
17700,81.962,8.676,-56.672000000000004
17800,80.68,8.62,-56.0
17900,79.4175,8.7,-56.7175
18000,78.17333333333333,8.8,-56.266666666666666
18100,76.954,8.984,-55.484
18200,75.762,9.017999999999999,-55.641999999999996
18300,74.58,9.08,-55.11
18400,73.416,9.38,-55.028
18500,72.28,9.58,-55.46
18600,71.15875,9.69375,-54.92125
18700,70.05,9.85,-54.71
18800,68.96000000000001,10.14,-55.07714285714285
18900,67.89,10.205,-55.394999999999996
19000,66.83,10.37,-55.17
19100,65.79,10.32,-54.97
19200,64.77,10.7,-55.18
19300,63.76,10.9475,-54.555
19400,62.769999999999996,11.803333333333333,-55.196666666666665
19500,61.79,12.73,-54.928
19600,60.832857142857144,12.877142857142857,-54.431428571428576
19700,59.89,12.79,-54.69
19800,58.96,12.874285714285714,-54.64857142857143
19900,58.045,12.82,-53.955
20000,57.15,12.54,-54.72
20100,56.263333333333335,12.496666666666666,-54.54333333333333
20200,55.38333333333333,12.356666666666666,-54.37
20300,54.528000000000006,12.533999999999999,-54.36
20400,53.685,12.725000000000001,-53.93
20500,52.85,12.79,-53.4575
20600,52.034,12.984,-53.674
20700,51.233333333333334,13.02,-53.88666666666666
20800,50.44,13.17,-53.94
20900,49.66307692307692,13.327692307692308,-53.14769230769231
21000,48.8975,13.524999999999999,-52.98
21100,48.145714285714284,13.725714285714286,-53.212857142857146
21200,47.403333333333336,13.87,-52.239999999999995
21300,46.67333333333333,13.92,-52.98
21400,45.955999999999996,13.89,-53.478
21500,45.24142857142857,13.64,-54.09
21600,44.54285714285714,13.49,-54.432857142857145
21700,43.85285714285715,13.461428571428572,-54.818571428571424
21800,43.17333333333333,13.478333333333333,-54.57
21900,42.50333333333333,13.48,-55.14777777777778
22000,41.843333333333334,13.4,-54.76111111111111
22100,41.19,13.41,-54.84
22200,40.55625,13.32875,-54.41374999999999
22300,39.924,13.304,-55.216
22400,39.3025,13.3,-55.6875
22500,38.69,13.2,-55.305
22600,38.08625,13.19125,-55.2575
22700,37.494285714285716,12.947142857142856,-55.20142857142857
22800,36.91,13.03,-55.53
22900,36.33555555555555,13.02,-54.96666666666667
23000,35.77,13.04,-55.67
23100,35.211111111111116,12.97,-56.51777777777777
23200,34.6625,12.66,-56.715
23300,34.12,12.65,-56.87
23400,33.58615384615385,12.571538461538461,-56.582307692307694
23500,33.06,12.53,-56.34
23600,32.545,12.459,-55.308
23700,32.04,12.55,-54.504
23800,31.54,12.74,-53.93
23900,31.055,12.85,-53.910000000000004
24000,30.575,12.86,-53.755
24100,30.10222222222222,12.76,-53.49333333333333
24200,29.636875,12.7125,-52.927499999999995
24300,29.184,12.81,-52.704
24400,28.734444444444446,12.834444444444443,-52.03111111111111
24500,28.294090909090908,12.72,-51.151818181818186
24600,27.862000000000002,12.81,-52.04
24700,27.435000000000002,12.62,-51.745000000000005
24800,27.01409090909091,12.65,-51.49636363636363
24900,26.6,12.56,-52.144999999999996
25000,26.19375,12.47,-51.72416666666667
25100,25.7925,12.445,-50.69
25200,25.402,12.37,-49.924
25300,25.015,12.32,-50.81
25400,24.63375,12.08,-50.81375
25500,24.2575,11.995000000000001,-50.550000000000004
25600,23.887142857142855,11.86,-50.56428571428571
25700,23.52181818181818,11.65,-50.13454545454545
25800,23.16625,11.64,-50.52375
25900,22.813333333333333,11.503333333333334,-49.16
26000,22.46818181818182,11.42909090909091,-48.21
26100,22.13,11.2,-48.36
26200,21.796666666666667,10.63888888888889,-48.593333333333334
26300,21.465,9.89,-47.74
26400,21.14333333333333,9.84,-48.47111111111111
26500,20.823333333333334,9.86,-48.92333333333333
26600,20.50857142857143,10.135714285714286,-48.90571428571429
26700,20.198749999999997,10.27,-48.17
26800,19.895,10.416666666666666,-47.88
26900,19.594285714285714,10.537142857142856,-48.74857142857143
27000,19.299285714285713,10.59,-47.88
27100,19.008666666666667,10.153333333333332,-48.25
27200,18.72142857142857,9.401428571428571,-48.839999999999996
27300,18.44,9.09,-48.37
27400,18.16,8.923333333333334,-48.620000000000005
27500,17.885,8.93,-48.82
27600,17.615000000000002,8.76,-49.19
27700,17.35,8.64,-48.55
27800,17.087799999999998,8.51,-48.742
27900,16.83,8.39,-47.945
28000,16.5775,8.446874999999999,-47.6075
28100,16.327461538461538,8.53153846153846,-47.82846153846154
28200,16.0825,8.7375,-47.155
28300,15.842,9.134,-46.782000000000004
28400,15.604777777777779,9.098888888888888,-46.22666666666667
28500,15.372111111111112,8.673333333333332,-46.34888888888889
28600,15.142727272727273,8.5,-46.025454545454544
28700,14.915714285714285,8.62,-46.23
28800,14.693076923076923,8.662307692307692,-45.87384615384615
28900,14.473571428571429,8.397142857142857,-45.63857142857143
29000,14.259285714285713,8.334285714285715,-45.345
29100,14.046,8.546,-44.759
29200,13.838,8.244,-44.354
29300,13.632000000000001,8.568,-43.38
29400,13.431538461538462,9.175384615384615,-43.13307692307692
29500,13.233333333333334,9.493333333333334,-42.33333333333333
29600,13.039,9.536,-42.472
29700,12.8475,9.545,-42.58
29800,12.657272727272728,9.576363636363636,-43.403636363636366
29900,12.470625,9.489583333333334,-42.88291666666667
30000,12.2875,9.42,-42.34
30100,12.106666666666666,9.163333333333334,-42.19
30200,11.93,9.11,-42.12
30300,11.754347826086956,8.98304347826087,-40.80347826086956
30400,11.583333333333334,8.8,-39.50555555555555
30500,11.415,8.71,-40.75
30600,11.248333333333333,8.6325,-39.02166666666667
30700,11.0853125,8.5,-39.9275
30800,10.924545454545454,8.425454545454546,-39.03272727272727
30900,10.865,8.4,-39.55
31000,10.865,8.4,-39.55
