GPHeight,Pressure,O3PartialPressure,Temperature
100,969.59,2.096,-5.9399999999999995
200,957.2666666666667,2.09,-6.911111111111111
300,944.975,2.09,-7.9625
400,933.0111111111111,2.071111111111111,-8.88888888888889
500,920.9222222222222,2.077777777777778,-9.6
600,909.1555555555556,2.0655555555555556,-10.544444444444444
700,897.3888888888889,2.02,-11.455555555555556
800,885.7555555555556,2.0,-12.3
900,874.1,1.99,-13.0
1000,862.7,1.95,-13.8
1100,851.4777777777779,1.91,-14.422222222222222
1200,840.325,1.9,-14.8
1300,829.4,1.84,-14.955555555555556
1400,818.5111111111111,1.8111111111111111,-15.2
1500,807.8333333333334,1.7533333333333334,-16.0
1600,797.2,1.726,-16.84
1700,786.5666666666666,1.69,-17.733333333333334
1800,776.1777777777778,1.64,-18.322222222222223
1900,765.9,1.63,-17.5
2000,755.7,1.57,-18.1
2100,745.6,1.55,-18.3
2200,735.5999999999999,1.53,-18.6
2300,725.73,1.48,-18.23
2400,716.1,1.46,-18.9
2500,706.55,1.495,-19.45
2600,697.18,1.528,-20.28
2700,687.7,1.5,-20.9
2800,678.4,1.53,-21.81111111111111
2900,669.05,1.53,-22.55
3000,659.98,1.51,-23.38
3100,651.09,1.51,-24.29
3200,642.2,1.5,-25.3
3300,633.2900000000001,1.47,-26.09
3400,624.6111111111112,1.47,-27.011111111111113
3500,615.9200000000001,1.47,-27.72
3600,607.32,1.47,-28.72
3700,598.8727272727273,1.47,-29.490909090909092
3800,590.54,1.4529999999999998,-30.47
3900,582.27,1.423,-31.17
4000,574.14,1.3330000000000002,-31.77
4100,566.14,1.2930000000000001,-32.6
4200,558.14,1.29,-33.47
4300,550.2636363636364,1.29,-34.25454545454546
4400,542.39,1.31,-34.93
4500,534.6272727272727,1.3,-35.60909090909091
4600,527.0363636363636,1.31,-36.24545454545454
4700,519.5181818181818,1.32,-37.07272727272727
4800,512.0272727272727,1.33,-37.96363636363636
4900,504.6181818181818,1.31,-38.77272727272727
5000,497.23636363636365,1.310909090909091,-39.50909090909091
5100,489.9888888888889,1.3,-40.288888888888884
5200,482.93,1.3,-41.11
5300,475.92,1.3,-41.8
5400,468.95000000000005,1.295,-42.650000000000006
5500,461.99,1.27,-43.33
5600,455.2,1.25,-43.9
5700,448.47999999999996,1.3,-43.96
5800,441.73636363636365,1.36,-44.5
5900,435.18,1.376,-45.06
6000,428.72727272727275,1.38,-45.78181818181818
6100,422.3272727272727,1.3418181818181818,-46.581818181818186
6200,416.06363636363636,1.3590909090909091,-47.29090909090909
6300,409.8272727272727,1.3318181818181818,-48.081818181818186
6400,403.6,1.28,-48.8
6500,397.46666666666664,1.29,-49.66666666666667
6600,391.43636363636364,1.289090909090909,-50.50909090909091
6700,385.3916666666667,1.2641666666666667,-51.25833333333333
6800,379.5,1.21,-52.0
6900,373.6636363636364,1.0527272727272727,-52.79090909090909
7000,367.9727272727273,1.0418181818181818,-53.63636363636364
7100,362.28181818181815,1.04,-54.4
7200,356.6181818181818,1.08,-55.36363636363636
7300,351.0272727272727,1.0136363636363637,-56.28181818181818
7400,345.56363636363636,0.9,-56.87272727272727
7500,340.1,0.86,-57.75
7600,334.76153846153846,0.8023076923076924,-58.4
7700,329.40000000000003,0.8071428571428572,-59.02857142857143
7800,324.18571428571425,0.81,-59.66428571428572
7900,319.05,0.85,-60.378571428571426
8000,313.9384615384615,0.9023076923076924,-61.12307692307692
8100,308.90000000000003,1.0666666666666667,-61.6
8200,303.95,1.1441666666666666,-62.34166666666666
8300,299.06666666666666,1.21,-62.93333333333333
8400,294.2,1.23,-63.7
8500,289.4428571428571,1.3142857142857143,-63.857142857142854
8600,284.7,1.47,-64.1
8700,280.1166666666667,1.4883333333333333,-64.31666666666666
8800,275.55,1.32,-65.05833333333334
8900,271.0833333333333,1.205,-65.88333333333334
9000,266.63846153846157,1.236923076923077,-66.4
9100,262.23846153846154,1.3276923076923077,-66.6
9200,257.96923076923076,1.463076923076923,-67.04615384615384
9300,253.74615384615385,1.649230769230769,-67.16923076923077
9400,249.52307692307693,1.9461538461538461,-67.01538461538462
9500,245.5,2.17,-66.9
9600,241.36153846153846,2.278461538461538,-67.1
9700,237.5,2.18,-67.7
9800,233.53846153846155,2.11,-68.3
9900,229.7,2.3,-68.0
10000,225.89166666666665,2.6933333333333334,-68.4
10100,222.2,2.92,-68.8
10200,218.45,2.9450000000000003,-68.75
10300,214.86666666666665,3.19,-68.6
10400,211.33333333333334,3.2883333333333336,-68.99166666666667
10500,207.76666666666665,3.2841666666666667,-69.45833333333334
10600,204.38181818181818,3.28,-69.7
10700,201.0,3.3525,-70.025
10800,197.59166666666667,3.424166666666667,-70.3
10900,194.2846153846154,3.605384615384615,-69.2
11000,191.06666666666666,3.8158333333333334,-69.24166666666667
11100,187.8923076923077,3.95,-69.06923076923077
11200,184.72307692307692,4.016923076923076,-69.2
11300,181.66666666666666,4.043333333333333,-69.2
11400,178.69230769230768,3.853846153846154,-69.5
11500,175.74615384615385,3.756153846153846,-69.3
11600,172.82500000000002,3.5941666666666667,-69.3
11700,169.96923076923076,3.51,-69.67692307692307
11800,167.03333333333333,3.48,-69.5
11900,164.3181818181818,3.45,-69.62727272727273
12000,161.575,3.395,-69.975
12100,158.875,3.1241666666666665,-70.1
12200,156.20909090909092,2.8936363636363636,-70.3
12300,153.625,2.82,-70.07499999999999
12400,151.0,2.95,-70.0
12500,148.48181818181817,3.174545454545455,-69.5
12600,146.0,3.0,-69.6
12700,143.625,2.91,-69.8
12800,141.22727272727272,3.189090909090909,-69.69090909090909
12900,138.91818181818184,3.379090909090909,-70.09090909090908
13000,136.61818181818182,3.508181818181818,-70.3
13100,134.29999999999998,3.53,-70.6
13200,132.07692307692307,3.549230769230769,-70.6
13300,129.87692307692308,3.306923076923077,-70.2
13400,127.66923076923077,2.683076923076923,-70.4
13500,125.6,1.83,-70.4
13600,123.45,1.4649999999999999,-70.92500000000001
13700,121.43333333333334,1.4183333333333332,-70.61666666666666
13800,119.38333333333333,1.7391666666666667,-70.5
13900,117.37272727272727,1.94,-70.53636363636363
14000,115.41818181818182,2.2918181818181815,-70.30909090909091
14100,113.51818181818182,3.3945454545454545,-70.0
14200,111.65454545454546,4.458181818181819,-69.9
14300,109.78181818181818,4.86,-70.19090909090909
14400,107.89090909090909,4.905454545454545,-69.74545454545455
14500,106.0909090909091,4.8963636363636365,-69.5
14600,104.39090909090909,5.101818181818182,-69.5
14700,102.65,5.045,-69.5
14800,100.98181818181818,4.919090909090909,-69.4
14900,99.28181818181818,4.83,-69.50909090909092
15000,97.6,4.89,-69.6
15100,96.03333333333333,4.966666666666667,-69.4
15200,94.37272727272727,5.096363636363636,-70.1
15300,92.84545454545454,4.922727272727273,-69.8
15400,91.2909090909091,4.298181818181819,-69.75454545454545
15500,89.80909090909091,4.118181818181818,-69.59090909090908
15600,88.28181818181818,4.34,-69.30909090909091
15700,86.82727272727273,3.5254545454545454,-69.7
15800,85.38,2.236,-69.5
15900,83.9,1.47,-69.3
16000,82.54545454545455,1.0672727272727274,-69.27272727272727
16100,81.17272727272727,0.98,-68.8
16200,79.83636363636363,1.9427272727272726,-68.7
16300,78.50909090909092,2.5154545454545456,-67.60909090909091
16400,77.225,2.45,-67.8
16500,75.94545454545455,1.730909090909091,-67.5909090909091
16600,74.675,1.3475000000000001,-66.9
16700,73.41818181818182,1.309090909090909,-66.5
16800,72.24166666666667,1.5691666666666668,-65.74166666666667
16900,71.07499999999999,1.875,-64.775
17000,69.89090909090909,2.2909090909090906,-63.59090909090909
17100,68.78,2.61,-63.120000000000005
17200,67.64545454545454,2.8454545454545452,-63.2
17300,66.61818181818181,2.9745454545454546,-62.518181818181816
17400,65.5,3.29,-62.0
17500,64.46363636363637,3.401818181818182,-61.46363636363636
17600,63.43,3.658,-60.53
17700,62.4,4.06,-60.6
17800,61.40833333333333,3.6308333333333334,-60.416666666666664
17900,60.43333333333333,3.6033333333333335,-59.43333333333333
18000,59.445454545454545,3.6,-58.64545454545455
18100,58.56666666666667,3.7066666666666666,-57.86666666666667
18200,57.59166666666667,4.030833333333334,-57.0
18300,56.72727272727273,4.267272727272727,-57.02727272727273
18400,55.87272727272727,4.46,-55.8
18500,55.00833333333333,4.54,-56.3
18600,54.13333333333333,4.62,-55.6
18700,53.25833333333333,4.59,-55.9
18800,52.4,4.58,-56.5
18900,51.63636363636364,4.57,-56.13636363636364
19000,50.875,4.692500000000001,-54.475
19100,50.025,4.78,-53.925
19200,49.275,4.77,-53.0
19300,48.52727272727273,4.745454545454545,-52.62727272727273
19400,47.775,4.665,-52.7
19500,47.1,4.58,-51.208333333333336
19600,46.324999999999996,4.512499999999999,-50.725
19700,45.641666666666666,4.7525,-49.583333333333336
19800,44.958333333333336,4.844166666666666,-48.7
19900,44.29090909090909,4.911818181818182,-48.78181818181818
20000,43.6,5.156666666666666,-46.733333333333334
20100,42.99166666666667,5.934166666666666,-44.38333333333333
20200,42.3,6.5525,-44.5
20300,41.7,6.8566666666666665,-45.266666666666666
20400,41.1,7.035,-45.9
20500,40.46363636363636,7.347272727272727,-44.82727272727273
20600,39.8,7.8118181818181816,-43.79090909090909
20700,39.29090909090909,8.59909090909091,-42.981818181818184
20800,38.7,9.49,-41.1
20900,38.11818181818182,10.141818181818183,-40.4
21000,37.55833333333334,10.425833333333333,-40.6
21100,37.00833333333333,10.658333333333333,-40.791666666666664
21200,36.5,10.726666666666667,-41.1
21300,35.90833333333333,10.730833333333333,-41.208333333333336
21400,35.45454545454545,10.72,-40.8
21500,34.9,10.8,-40.291666666666664
21600,34.4,10.713333333333333,-40.1
21700,33.9,10.754999999999999,-39.483333333333334
21800,33.44166666666666,10.629166666666666,-39.858333333333334
21900,32.90833333333333,10.5075,-40.3
22000,32.46363636363636,10.514545454545454,-40.4
22100,32.0,10.51,-40.324999999999996
22200,31.5,10.623333333333335,-39.69166666666667
22300,31.075000000000003,10.63,-39.4
22400,30.6,10.67,-39.3
22500,30.175,10.7075,-38.55
22600,29.7,10.78,-38.93333333333333
22700,29.266666666666666,10.856666666666666,-38.833333333333336
22800,28.866666666666667,11.02,-37.03333333333333
22900,28.476923076923075,11.182307692307692,-36.17692307692308
23000,28.02857142857143,11.34142857142857,-35.65714285714286
23100,27.6,11.48,-35.4
23200,27.257142857142856,11.55,-34.614285714285714
23300,26.815384615384616,11.716153846153846,-33.715384615384615
23400,26.5,11.80923076923077,-34.0
23500,26.1,11.788461538461538,-34.12307692307692
23600,25.733333333333334,11.723333333333334,-34.56666666666667
23700,25.4,11.59,-35.1
23800,25.0,11.504166666666666,-35.2
23900,24.645454545454545,11.48909090909091,-34.54545454545455
24000,24.3,11.48,-34.4
24100,23.966666666666665,11.46,-33.63333333333333
24200,23.6,11.474166666666667,-31.883333333333333
24300,23.3,11.5,-31.016666666666666
24400,22.983333333333334,11.47,-30.9
24500,22.6,11.44,-30.758333333333333
24600,22.3,11.366666666666667,-30.5
24700,22.0,11.31,-31.05
24800,21.7,11.198461538461538,-31.8
24900,21.4,11.114615384615384,-32.01538461538462
25000,21.1,11.17,-31.6
25100,20.8,10.965384615384615,-31.6
25200,20.5,10.85,-30.553846153846155
25300,20.2,10.373846153846154,-30.853846153846153
25400,19.9,10.621666666666666,-29.791666666666668
25500,19.7,10.86,-29.3
25600,19.4,10.87,-28.807692307692307
25700,19.108333333333334,11.055,-28.108333333333334
25800,18.83076923076923,11.064615384615385,-27.16923076923077
25900,18.6,11.022307692307692,-26.7
26000,18.3,10.95,-26.3
26100,18.1,10.886153846153846,-26.2
26200,17.8,10.733076923076924,-26.284615384615385
26300,17.6,10.660769230769231,-25.215384615384615
26400,17.4,10.779230769230768,-23.6
26500,17.1,10.961666666666668,-22.583333333333336
26600,16.9,11.605,-21.25
26700,16.7,12.4,-21.3
26800,16.4,12.9575,-20.15
26900,16.2,13.259230769230768,-18.853846153846153
27000,16.0,13.25,-18.9
27100,15.8,13.170769230769231,-19.1
27200,15.6,13.0,-19.4
27300,15.4,12.845714285714285,-19.542857142857144
27400,15.2,12.652857142857144,-20.0
27500,15.0,12.400714285714287,-20.892857142857142
27600,14.792857142857143,12.295,-21.407142857142855
27700,14.585714285714285,12.085714285714285,-22.014285714285716
27800,14.392857142857142,11.967142857142857,-22.707142857142856
27900,14.2,11.810666666666668,-23.293333333333333
28000,14.0,11.686666666666666,-22.3
28100,13.8,11.516666666666666,-21.833333333333332
28200,13.6,11.4,-22.6
28300,13.4,11.244,-23.18
28400,13.2,11.066666666666666,-23.966666666666665
28500,13.014285714285714,10.854285714285714,-24.785714285714285
28600,12.9,10.726153846153847,-24.838461538461537
28700,12.7,10.55846153846154,-25.0
28800,12.5,10.41,-25.3
28900,12.32857142857143,10.248571428571429,-25.9
29000,12.2,10.095384615384615,-25.8
29100,12.0,9.933571428571428,-26.564285714285717
29200,11.876923076923077,9.69076923076923,-27.0
29300,11.7,9.61,-27.7
29400,11.5,9.45923076923077,-28.3
29500,11.4,9.29,-28.4
29600,11.2,9.0725,-29.2
29700,11.023076923076923,9.007692307692308,-29.223076923076924
29800,10.9,8.83,-29.953846153846154
29900,10.7,8.63076923076923,-30.33076923076923
30000,10.6,8.64,-29.7
30100,10.430769230769231,8.429230769230768,-29.83076923076923
30200,10.3,8.207692307692309,-27.76923076923077
30300,10.2,8.08,-27.6
30400,10.0,7.914285714285715,-27.557142857142857
30500,9.9,7.696153846153846,-27.607692307692307
30600,9.7,7.6207692307692305,-28.23846153846154
30700,9.6,7.410769230769231,-27.615384615384617
30800,9.5,7.248571428571428,-27.271428571428572
30900,9.323076923076924,7.17,-26.823076923076922
31000,9.2,6.936923076923077,-26.73076923076923
31100,9.1,6.838461538461538,-26.9
31200,9.0,6.570769230769231,-27.046153846153846
31300,8.8,6.396153846153846,-26.46923076923077
31400,8.7,6.28,-26.107692307692307
31500,8.6,6.208461538461538,-26.3
31600,8.5,6.09076923076923,-26.26923076923077
31700,8.4,6.106923076923077,-26.638461538461538
31800,8.207692307692307,5.892307692307692,-25.70769230769231
31900,8.1,5.84,-26.23076923076923
32000,8.0,5.645714285714286,-26.1
32100,7.9,5.5576923076923075,-25.8
32200,7.8,5.45,-25.015384615384615
32300,7.7,5.403846153846153,-24.092307692307692
32400,7.6,5.263846153846154,-24.1
32500,7.5,5.17,-24.2
32600,7.4,5.07,-23.346153846153847
32700,7.3,4.98,-21.0
32800,7.2,4.883076923076923,-20.93076923076923
32900,7.1,4.804285714285714,-20.5
33000,7.0,4.691538461538462,-20.5
33100,6.9,4.6,-20.6
33200,6.8,4.541538461538462,-20.9
33300,6.7,4.467692307692308,-20.96153846153846
33400,6.6,4.4,-20.6
33500,6.523076923076923,4.32,-20.876923076923077
33600,6.5,4.27,-20.869230769230768
33700,6.4,4.25,-21.558333333333334
33800,6.3,4.2075,-22.341666666666665
33900,6.2,4.163076923076924,-23.015384615384615
34000,6.1,4.094615384615385,-22.946153846153845
34100,6.0,3.9864285714285717,-22.9
34200,6.0,3.923076923076923,-22.807692307692307
34300,5.9,3.885,-23.0
34400,5.8,3.82,-23.0
34500,5.7,3.763076923076923,-23.453846153846154
34600,5.6,3.7014285714285715,-23.085714285714285
34700,5.6,3.6961538461538463,-22.93846153846154
34800,5.5,3.597692307692308,-23.0
34900,5.4,3.559230769230769,-23.3
35000,5.3,3.53,-24.0
35100,5.3,3.5138461538461536,-24.607692307692307
35200,5.2,3.431538461538462,-24.984615384615385
35300,5.1,3.34,-25.29230769230769
35400,5.030769230769231,3.269230769230769,-24.96153846153846
35500,5.0,3.1799999999999997,-23.5
35600,4.9,3.07,-22.0
35700,4.9,3.07,-22.0
